# EMDoublePairProduction interaction rates
# photon field: cosmic infrared and optical background radiation model of Kneiske et al. 2004
# log10(E/eV), 1/lambda [1/Mpc]
10.95	1.18949e-27
11.00	1.17363e-19
11.05	1.56229e-17
11.10	3.11141e-16
11.15	2.55098e-15
11.20	1.34226e-14
11.25	5.16897e-14
11.30	1.63679e-13
11.35	4.43379e-13
11.40	1.07706e-12
11.45	2.38426e-12
11.50	4.9109e-12
11.55	9.46993e-12
11.60	1.72722e-11
11.65	2.99104e-11
11.70	4.95167e-11
11.75	7.86532e-11
11.80	1.20547e-10
11.85	1.78927e-10
11.90	2.58461e-10
11.95	3.64598e-10
12.00	5.04309e-10
12.05	6.85961e-10
12.10	9.20416e-10
12.15	1.22083e-09
12.20	1.60409e-09
12.25	2.09035e-09
12.30	2.70468e-09
12.35	3.47607e-09
12.40	4.43918e-09
12.45	5.63251e-09
12.50	7.10001e-09
12.55	8.88793e-09
12.60	1.10462e-08
12.65	1.36233e-08
12.70	1.66685e-08
12.75	2.02245e-08
12.80	2.43308e-08
12.85	2.90154e-08
12.90	3.43004e-08
12.95	4.0193e-08
13.00	4.66947e-08
13.05	5.37926e-08
13.10	6.14679e-08
13.15	6.96929e-08
13.20	7.84447e-08
13.25	8.76918e-08
13.30	9.7419e-08
13.35	1.07607e-07
13.40	1.18264e-07
13.45	1.29393e-07
13.50	1.41032e-07
13.55	1.53211e-07
13.60	1.65998e-07
13.65	1.79444e-07
13.70	1.93637e-07
13.75	2.08647e-07
13.80	2.24581e-07
13.85	2.41533e-07
13.90	2.59661e-07
13.95	2.79136e-07
14.00	3.00258e-07
14.05	3.23424e-07
14.10	3.493e-07
14.15	3.7884e-07
14.20	4.13524e-07
14.25	4.55412e-07
14.30	5.07378e-07
14.35	5.73079e-07
14.40	6.57072e-07
14.45	7.64604e-07
14.50	9.0161e-07
14.55	1.07428e-06
14.60	1.28901e-06
14.65	1.55176e-06
14.70	1.86816e-06
14.75	2.24256e-06
14.80	2.67861e-06
14.85	3.1779e-06
14.90	3.74132e-06
14.95	4.36712e-06
15.00	5.05319e-06
15.05	5.7945e-06
15.10	6.58644e-06
15.15	7.42133e-06
15.20	8.2929e-06
15.25	9.19179e-06
15.30	1.01112e-05
15.35	1.10412e-05
15.40	1.19755e-05
15.45	1.29044e-05
15.50	1.38228e-05
15.55	1.47224e-05
15.60	1.55994e-05
15.65	1.6447e-05
15.70	1.72629e-05
15.75	1.80424e-05
15.80	1.8785e-05
15.85	1.94871e-05
15.90	2.01497e-05
15.95	2.07706e-05
16.00	2.13519e-05
16.05	2.18923e-05
16.10	2.23947e-05
16.15	2.28587e-05
16.20	2.32875e-05
16.25	2.36812e-05
16.30	2.40431e-05
16.35	2.4374e-05
16.40	2.46767e-05
16.45	2.49523e-05
16.50	2.52035e-05
16.55	2.54315e-05
16.60	2.56385e-05
16.65	2.58258e-05
16.70	2.59954e-05
16.75	2.61487e-05
16.80	2.6287e-05
16.85	2.64118e-05
16.90	2.6524e-05
16.95	2.66254e-05
17.00	2.67161e-05
17.05	2.67981e-05
17.10	2.68712e-05
17.15	2.69374e-05
17.20	2.69962e-05
17.25	2.70496e-05
17.30	2.70967e-05
17.35	2.71398e-05
17.40	2.71775e-05
17.45	2.72122e-05
17.50	2.72422e-05
17.55	2.72698e-05
17.60	2.72935e-05
17.65	2.73158e-05
17.70	2.73345e-05
17.75	2.73525e-05
17.80	2.73672e-05
17.85	2.73781e-05
17.90	2.73904e-05
17.95	2.74014e-05
18.00	2.74112e-05
18.05	2.74201e-05
18.10	2.74278e-05
18.15	2.74349e-05
18.20	2.74411e-05
18.25	2.74469e-05
18.30	2.74516e-05
18.35	2.74563e-05
18.40	2.74601e-05
18.45	2.74639e-05
18.50	2.74669e-05
18.55	2.747e-05
18.60	2.74724e-05
18.65	2.7475e-05
18.70	2.74768e-05
18.75	2.7479e-05
18.80	2.74804e-05
18.85	2.74822e-05
18.90	2.74832e-05
18.95	2.74848e-05
19.00	2.74856e-05
19.05	2.74871e-05
19.10	2.74876e-05
19.15	2.74889e-05
19.20	2.74893e-05
19.25	2.74905e-05
19.30	2.74907e-05
19.35	2.74918e-05
19.40	2.7492e-05
19.45	2.74931e-05
19.50	2.74931e-05
19.55	2.7494e-05
19.60	2.7494e-05
19.65	2.74948e-05
19.70	2.74945e-05
19.75	2.74953e-05
19.80	2.74951e-05
19.85	2.74958e-05
19.90	2.74956e-05
19.95	2.74873e-05
20.00	2.74872e-05
20.05	2.74878e-05
20.10	2.74877e-05
20.15	2.74882e-05
20.20	2.74882e-05
20.25	2.74887e-05
20.30	2.74887e-05
20.35	2.74892e-05
20.40	2.74892e-05
20.45	2.74895e-05
20.50	2.74895e-05
20.55	2.74898e-05
20.60	2.74899e-05
20.65	2.74902e-05
20.70	2.74903e-05
20.75	2.74905e-05
20.80	2.74908e-05
20.85	2.7491e-05
20.90	2.74912e-05
20.95	2.74913e-05
21.00	2.74917e-05
21.05	2.74918e-05
21.10	2.74922e-05
21.15	2.74923e-05
21.20	2.74928e-05
21.25	2.74928e-05
21.30	2.74933e-05
21.35	2.74932e-05
21.40	2.74938e-05
21.45	2.74936e-05
21.50	2.74942e-05
21.55	2.74939e-05
21.60	2.74944e-05
21.65	2.74939e-05
21.70	2.74942e-05
21.75	2.74933e-05
21.80	2.74931e-05
21.85	2.74916e-05
21.90	2.74913e-05
21.95	2.74894e-05
22.00	2.74887e-05
22.05	2.74861e-05
22.10	2.74808e-05
22.15	2.74776e-05
22.20	2.74737e-05
22.25	2.74687e-05
22.30	2.74625e-05
22.35	2.74549e-05
22.40	2.74459e-05
22.45	2.74353e-05
22.50	2.74232e-05
22.55	2.74091e-05
22.60	2.73937e-05
22.65	2.73768e-05
22.70	2.73592e-05
22.75	2.73411e-05
22.80	2.73237e-05
22.85	2.73063e-05
22.90	2.72902e-05
22.95	2.72746e-05
23.00	2.72607e-05
