# EMDoublePairProduction interaction rates
# photon field: cosmic infrared and optical background radiation model of Finke et al. 2010 (Model C)
# log10(E/eV), 1/lambda [1/Mpc]
10.80	1.04757e-70
10.85	1.93327e-68
10.90	1.61511e-28
10.95	2.53952e-20
11.00	4.83412e-18
11.05	1.17123e-16
11.10	1.12971e-15
11.15	6.49308e-15
11.20	2.67476e-14
11.25	8.74078e-14
11.30	2.41219e-13
11.35	5.84954e-13
11.40	1.2817e-12
11.45	2.58607e-12
11.50	4.87545e-12
11.55	8.68112e-12
11.60	1.47302e-11
11.65	2.39877e-11
11.70	3.772e-11
11.75	5.75681e-11
11.80	8.5658e-11
11.85	1.24736e-10
11.90	1.78354e-10
11.95	2.51093e-10
12.00	3.48837e-10
12.05	4.79081e-10
12.10	6.51253e-10
12.15	8.77056e-10
12.20	1.17073e-09
12.25	1.54934e-09
12.30	2.03261e-09
12.35	2.64324e-09
12.40	3.40639e-09
12.45	4.34937e-09
12.50	5.50091e-09
12.55	6.89046e-09
12.60	8.54715e-09
12.65	1.04988e-08
12.70	1.2771e-08
12.75	1.53859e-08
12.80	1.83616e-08
12.85	2.17115e-08
12.90	2.54439e-08
12.95	2.95624e-08
13.00	3.40665e-08
13.05	3.89523e-08
13.10	4.42143e-08
13.15	4.9847e-08
13.20	5.58469e-08
13.25	6.22143e-08
13.30	6.89554e-08
13.35	7.60832e-08
13.40	8.36189e-08
13.45	9.15917e-08
13.50	1.00038e-07
13.55	1.09003e-07
13.60	1.18533e-07
13.65	1.28681e-07
13.70	1.39497e-07
13.75	1.51036e-07
13.80	1.63347e-07
13.85	1.76489e-07
13.90	1.90527e-07
13.95	2.05555e-07
14.00	2.21704e-07
14.05	2.39186e-07
14.10	2.58306e-07
14.15	2.79523e-07
14.20	3.03472e-07
14.25	3.31027e-07
14.30	3.63312e-07
14.35	4.01758e-07
14.40	4.48082e-07
14.45	5.04316e-07
14.50	5.72744e-07
14.55	6.55895e-07
14.60	7.5642e-07
14.65	8.77077e-07
14.70	1.02053e-06
14.75	1.18936e-06
14.80	1.38579e-06
14.85	1.61179e-06
14.90	1.86873e-06
14.95	2.15755e-06
15.00	2.47843e-06
15.05	2.83111e-06
15.10	3.21447e-06
15.15	3.62696e-06
15.20	4.06627e-06
15.25	4.5297e-06
15.30	5.01388e-06
15.35	5.51514e-06
15.40	6.02939e-06
15.45	6.55225e-06
15.50	7.07948e-06
15.55	7.60644e-06
15.60	8.1294e-06
15.65	8.64379e-06
15.70	9.14704e-06
15.75	9.63483e-06
15.80	1.01062e-05
15.85	1.05571e-05
15.90	1.09882e-05
15.95	1.13956e-05
16.00	1.17819e-05
16.05	1.21429e-05
16.10	1.2483e-05
16.15	1.27975e-05
16.20	1.30925e-05
16.25	1.33626e-05
16.30	1.36151e-05
16.35	1.38443e-05
16.40	1.40412e-05
16.45	1.42364e-05
16.50	1.44117e-05
16.55	1.45748e-05
16.60	1.472e-05
16.65	1.48556e-05
16.70	1.49751e-05
16.75	1.5087e-05
16.80	1.51846e-05
16.85	1.52769e-05
16.90	1.53562e-05
16.95	1.54318e-05
17.00	1.54959e-05
17.05	1.5558e-05
17.10	1.56097e-05
17.15	1.56603e-05
17.20	1.57017e-05
17.25	1.57433e-05
17.30	1.57764e-05
17.35	1.58103e-05
17.40	1.58366e-05
17.45	1.58647e-05
17.50	1.58855e-05
17.55	1.59085e-05
17.60	1.59249e-05
17.65	1.59442e-05
17.70	1.5957e-05
17.75	1.59729e-05
17.80	1.59829e-05
17.85	1.59964e-05
17.90	1.60041e-05
17.95	1.60154e-05
18.00	1.60212e-05
18.05	1.60312e-05
18.10	1.60355e-05
18.15	1.6044e-05
18.20	1.60471e-05
18.25	1.60548e-05
18.30	1.6057e-05
18.35	1.60637e-05
18.40	1.60651e-05
18.45	1.60713e-05
18.50	1.60088e-05
18.55	1.60143e-05
18.60	1.60147e-05
18.65	1.60201e-05
18.70	1.602e-05
18.75	1.60249e-05
18.80	1.60246e-05
18.85	1.60294e-05
18.90	1.60288e-05
18.95	1.60333e-05
19.00	1.60325e-05
19.05	1.60369e-05
19.10	1.6036e-05
19.15	1.60402e-05
19.20	1.6039e-05
19.25	1.60433e-05
19.30	1.6042e-05
19.35	1.60461e-05
19.40	1.60447e-05
19.45	1.60488e-05
19.50	1.60474e-05
19.55	1.60513e-05
19.60	1.60497e-05
19.65	1.60538e-05
19.70	1.60522e-05
19.75	1.6056e-05
19.80	1.60543e-05
19.85	1.60583e-05
19.90	1.60566e-05
19.95	1.60604e-05
20.00	1.60586e-05
20.05	1.60625e-05
20.10	1.60607e-05
20.15	1.60645e-05
20.20	1.60626e-05
20.25	1.60666e-05
20.30	1.60647e-05
20.35	1.60685e-05
20.40	1.60665e-05
20.45	1.60706e-05
20.50	1.60686e-05
20.55	1.60725e-05
20.60	1.60705e-05
20.65	1.60477e-05
20.70	1.60514e-05
20.75	1.60498e-05
20.80	1.60533e-05
20.85	1.60518e-05
20.90	1.60554e-05
20.95	1.6054e-05
21.00	1.60574e-05
21.05	1.6056e-05
21.10	1.60596e-05
21.15	1.60581e-05
21.20	1.60615e-05
21.25	1.60601e-05
21.30	1.60637e-05
21.35	1.60623e-05
21.40	1.60656e-05
21.45	1.60642e-05
21.50	1.60677e-05
21.55	1.60662e-05
21.60	1.60694e-05
21.65	1.60678e-05
21.70	1.60711e-05
21.75	1.60694e-05
21.80	1.60723e-05
21.85	1.60704e-05
21.90	1.60732e-05
21.95	1.60708e-05
22.00	1.60729e-05
22.05	1.60699e-05
22.10	1.60713e-05
22.15	1.60672e-05
22.20	1.60672e-05
22.25	1.60615e-05
22.30	1.606e-05
22.35	1.60525e-05
22.40	1.60489e-05
22.45	1.60396e-05
22.50	1.60344e-05
22.55	1.60235e-05
22.60	1.60169e-05
22.65	1.60049e-05
22.70	1.59978e-05
22.75	1.59218e-05
22.80	1.59146e-05
22.85	1.59026e-05
22.90	1.5896e-05
22.95	1.58846e-05
23.00	1.58784e-05
