# EMDoublePairProduction interaction rates
# photon field: cosmic infrared and optical background radiation model of Stecker at al. 2005
# log10(E/eV), 1/lambda [1/Mpc]
10.95	7.78029e-19
11.00	1.49121e-16
11.05	2.89803e-15
11.10	2.32314e-14
11.15	1.09709e-13
11.20	3.86321e-13
11.25	1.08058e-12
11.30	2.62167e-12
11.35	5.60546e-12
11.40	1.10473e-11
11.45	2.01466e-11
11.50	3.48763e-11
11.55	5.73467e-11
11.60	9.10112e-11
11.65	1.39352e-10
11.70	2.07946e-10
11.75	3.0226e-10
11.80	4.30845e-10
11.85	6.01928e-10
11.90	8.27852e-10
11.95	1.1204e-09
12.00	1.49658e-09
12.05	1.97241e-09
12.10	2.56994e-09
12.15	3.30968e-09
12.20	4.22336e-09
12.25	5.32801e-09
12.30	6.65548e-09
12.35	8.23833e-09
12.40	1.01049e-08
12.45	1.2289e-08
12.50	1.48183e-08
12.55	1.77252e-08
12.60	2.10345e-08
12.65	2.47751e-08
12.70	2.89676e-08
12.75	3.36371e-08
12.80	3.87998e-08
12.85	4.44772e-08
12.90	5.06823e-08
12.95	5.74336e-08
13.00	6.47414e-08
13.05	7.26232e-08
13.10	8.10878e-08
13.15	9.01528e-08
13.20	9.98284e-08
13.25	1.10135e-07
13.30	1.21088e-07
13.35	1.32714e-07
13.40	1.45037e-07
13.45	1.58096e-07
13.50	1.71929e-07
13.55	1.8659e-07
13.60	2.02134e-07
13.65	2.18635e-07
13.70	2.36172e-07
13.75	2.54845e-07
13.80	2.74766e-07
13.85	2.96078e-07
13.90	3.1895e-07
13.95	3.43608e-07
14.00	3.70334e-07
14.05	3.99515e-07
14.10	4.31655e-07
14.15	4.67438e-07
14.20	5.07766e-07
14.25	5.53833e-07
14.30	6.07195e-07
14.35	6.69759e-07
14.40	7.43953e-07
14.45	8.3268e-07
14.50	9.39328e-07
14.55	1.06773e-06
14.60	1.22206e-06
14.65	1.40667e-06
14.70	1.6258e-06
14.75	1.88315e-06
14.80	2.18139e-06
14.85	2.52201e-06
14.90	2.90447e-06
14.95	3.32752e-06
15.00	3.78673e-06
15.05	4.27912e-06
15.10	4.79663e-06
15.15	5.33673e-06
15.20	5.888e-06
15.25	6.45044e-06
15.30	7.00991e-06
15.35	7.57092e-06
15.40	8.11611e-06
15.45	8.6554e-06
15.50	9.16883e-06
15.55	9.67245e-06
15.60	1.01425e-05
15.65	1.06008e-05
15.70	1.10208e-05
15.75	1.14303e-05
15.80	1.17332e-05
15.85	1.20708e-05
15.90	1.24021e-05
15.95	1.26905e-05
16.00	1.29768e-05
16.05	1.32199e-05
16.10	1.34639e-05
16.15	1.36663e-05
16.20	1.38742e-05
16.25	1.40411e-05
16.30	1.42162e-05
16.35	1.43524e-05
16.40	1.45009e-05
16.45	1.46111e-05
16.50	1.47356e-05
16.55	1.48238e-05
16.60	1.49298e-05
16.65	1.49998e-05
16.70	1.50889e-05
16.75	1.51439e-05
16.80	1.52206e-05
16.85	1.52632e-05
16.90	1.53282e-05
16.95	1.53608e-05
17.00	1.54179e-05
17.05	1.54423e-05
17.10	1.54913e-05
17.15	1.55091e-05
17.20	1.55532e-05
17.25	1.55657e-05
17.30	1.56042e-05
17.35	1.56124e-05
17.40	1.56481e-05
17.45	1.56528e-05
17.50	1.56845e-05
17.55	1.56864e-05
17.60	1.57166e-05
17.65	1.57161e-05
17.70	1.57434e-05
17.75	1.57411e-05
17.80	1.57676e-05
17.85	1.57638e-05
17.90	1.54546e-05
17.95	1.54496e-05
18.00	1.54737e-05
18.05	1.54678e-05
18.10	1.54903e-05
18.15	1.54837e-05
18.20	1.55065e-05
18.25	1.54994e-05
18.30	1.55208e-05
18.35	1.55133e-05
18.40	1.55352e-05
18.45	1.55274e-05
18.50	1.55481e-05
18.55	1.55399e-05
18.60	1.55613e-05
18.65	1.5553e-05
18.70	1.55733e-05
18.75	1.55648e-05
18.80	1.55858e-05
18.85	1.55772e-05
18.90	1.55972e-05
18.95	1.55884e-05
19.00	1.56093e-05
19.05	1.56005e-05
19.10	1.56203e-05
19.15	1.56114e-05
19.20	1.56321e-05
19.25	1.56233e-05
19.30	1.5643e-05
19.35	1.5634e-05
19.40	1.56546e-05
19.45	1.56457e-05
19.50	1.56653e-05
19.55	1.56564e-05
19.60	1.56769e-05
19.65	1.5668e-05
19.70	1.56875e-05
19.75	1.56785e-05
19.80	1.5699e-05
19.85	1.569e-05
19.90	1.57094e-05
19.95	1.57004e-05
20.00	1.57207e-05
20.05	1.56e-05
20.10	1.55906e-05
20.15	1.56104e-05
20.20	1.5601e-05
20.25	1.56217e-05
20.30	1.56123e-05
20.35	1.56321e-05
20.40	1.56228e-05
20.45	1.56435e-05
20.50	1.56341e-05
20.55	1.56539e-05
20.60	1.56446e-05
20.65	1.56653e-05
20.70	1.5656e-05
20.75	1.56758e-05
20.80	1.56665e-05
20.85	1.56872e-05
20.90	1.56779e-05
20.95	1.56977e-05
21.00	1.56884e-05
21.05	1.57092e-05
21.10	1.56999e-05
21.15	1.57197e-05
21.20	1.57104e-05
21.25	1.57312e-05
21.30	1.57219e-05
21.35	1.57416e-05
21.40	1.57322e-05
21.45	1.57527e-05
21.50	1.57432e-05
21.55	1.57625e-05
21.60	1.57527e-05
21.65	1.57726e-05
21.70	1.57624e-05
21.75	1.57808e-05
21.80	1.57699e-05
21.85	1.57884e-05
21.90	1.57765e-05
21.95	1.57929e-05
22.00	1.57797e-05
22.05	1.57955e-05
22.10	1.57807e-05
22.15	1.54588e-05
22.20	1.54422e-05
22.25	1.54546e-05
22.30	1.54363e-05
22.35	1.54458e-05
22.40	1.54258e-05
22.45	1.54346e-05
22.50	1.5413e-05
22.55	1.54197e-05
22.60	1.53972e-05
22.65	1.54039e-05
22.70	1.53804e-05
22.75	1.5385e-05
22.80	1.53603e-05
22.85	1.53644e-05
22.90	1.53381e-05
22.95	1.53397e-05
23.00	1.53118e-05
