# EMDoublePairProduction interaction rates
# photon field: cosmic infrared and optical background radiation model of Gilmore et al. 2012 (Evolving dust model, arXiv:1104.0671)
# log10(E/eV), 1/lambda [1/Mpc]
10.00	5.81063e-25
10.05	8.92651e-23
10.10	2.66039e-21
10.15	2.95619e-20
10.20	1.86236e-19
10.25	8.22777e-19
10.30	2.86947e-18
10.35	8.44515e-18
10.40	2.19799e-17
10.45	5.25314e-17
10.50	1.19889e-16
10.55	2.69605e-16
10.60	6.06077e-16
10.65	1.35219e-15
10.70	2.95103e-15
10.75	6.21606e-15
10.80	1.25629e-14
10.85	2.43172e-14
10.90	4.51873e-14
10.95	8.08523e-14
11.00	1.3988e-13
11.05	2.34986e-13
11.10	3.85613e-13
11.15	6.22831e-13
11.20	9.9879e-13
11.25	1.6017e-12
11.30	2.57738e-12
11.35	4.15713e-12
11.40	6.68927e-12
11.45	1.06765e-11
11.50	1.68104e-11
11.55	2.60148e-11
11.60	3.94779e-11
11.65	5.8705e-11
11.70	8.55574e-11
11.75	1.22332e-10
11.80	1.71844e-10
11.85	2.37566e-10
11.90	3.23797e-10
11.95	4.35877e-10
12.00	5.80432e-10
12.05	7.6566e-10
12.10	1.00161e-09
12.15	1.3005e-09
12.20	1.67688e-09
12.25	2.14796e-09
12.30	2.73353e-09
12.35	3.45608e-09
12.40	4.34044e-09
12.45	5.4137e-09
12.50	6.7043e-09
12.55	8.24179e-09
12.60	1.00553e-08
12.65	1.21731e-08
12.70	1.46207e-08
12.75	1.74207e-08
12.80	2.05904e-08
12.85	2.41423e-08
12.90	2.80822e-08
12.95	3.24102e-08
13.00	3.712e-08
13.05	4.22002e-08
13.10	4.76354e-08
13.15	5.34081e-08
13.20	5.95001e-08
13.25	6.58945e-08
13.30	7.2578e-08
13.35	7.95416e-08
13.40	8.6784e-08
13.45	9.43107e-08
13.50	1.02138e-07
13.55	1.10291e-07
13.60	1.18809e-07
13.65	1.27744e-07
13.70	1.37169e-07
13.75	1.47176e-07
13.80	1.57897e-07
13.85	1.695e-07
13.90	1.82224e-07
13.95	1.96378e-07
14.00	2.12393e-07
14.05	2.30821e-07
14.10	2.52408e-07
14.15	2.78093e-07
14.20	3.09095e-07
14.25	3.46907e-07
14.30	3.93383e-07
14.35	4.50705e-07
14.40	5.21453e-07
14.45	6.08517e-07
14.50	7.15122e-07
14.55	8.44667e-07
14.60	1.00069e-06
14.65	1.18666e-06
14.70	1.40586e-06
14.75	1.66118e-06
14.80	1.95501e-06
14.85	2.289e-06
14.90	2.66406e-06
14.95	3.08013e-06
15.00	3.53632e-06
15.05	4.03073e-06
15.10	4.56068e-06
15.15	5.12263e-06
15.20	5.71245e-06
15.25	6.32542e-06
15.30	6.95655e-06
15.35	7.60051e-06
15.40	8.25206e-06
15.45	8.90591e-06
15.50	9.55714e-06
15.55	1.0201e-05
15.60	1.08332e-05
15.65	1.145e-05
15.70	1.20482e-05
15.75	1.26248e-05
15.80	1.31778e-05
15.85	1.37053e-05
15.90	1.42061e-05
15.95	1.46795e-05
16.00	1.51251e-05
16.05	1.55429e-05
16.10	1.59332e-05
16.15	1.62965e-05
16.20	1.66337e-05
16.25	1.69456e-05
16.30	1.72334e-05
16.35	1.74982e-05
16.40	1.77414e-05
16.45	1.79641e-05
16.50	1.81677e-05
16.55	1.83534e-05
16.60	1.85225e-05
16.65	1.86763e-05
16.70	1.88158e-05
16.75	1.89422e-05
16.80	1.90566e-05
16.85	1.91599e-05
16.90	1.92533e-05
16.95	1.93375e-05
17.00	1.94134e-05
17.05	1.94817e-05
17.10	1.95432e-05
17.15	1.95984e-05
17.20	1.96481e-05
17.25	1.96926e-05
17.30	1.97326e-05
17.35	1.97684e-05
17.40	1.98005e-05
17.45	1.98293e-05
17.50	1.98551e-05
17.55	1.98781e-05
17.60	1.98988e-05
17.65	1.99172e-05
17.70	1.99338e-05
17.75	1.99485e-05
17.80	1.99618e-05
17.85	1.99735e-05
17.90	1.99841e-05
17.95	1.99935e-05
18.00	2.0002e-05
18.05	2.00095e-05
18.10	2.00162e-05
18.15	2.00222e-05
18.20	2.00276e-05
18.25	2.00324e-05
18.30	2.00367e-05
18.35	2.00405e-05
18.40	2.0044e-05
18.45	2.00471e-05
18.50	2.00498e-05
18.55	2.00523e-05
18.60	2.00545e-05
18.65	2.00565e-05
18.70	2.00582e-05
18.75	2.00599e-05
18.80	2.00612e-05
18.85	2.00624e-05
18.90	2.00634e-05
18.95	2.00643e-05
19.00	2.00651e-05
19.05	2.00658e-05
19.10	2.00664e-05
19.15	2.0067e-05
19.20	2.00674e-05
19.25	2.00679e-05
19.30	2.00682e-05
19.35	2.00686e-05
19.40	2.00688e-05
19.45	2.00691e-05
19.50	2.00693e-05
19.55	2.00696e-05
19.60	2.00697e-05
19.65	2.007e-05
19.70	2.00701e-05
19.75	2.00703e-05
19.80	2.00704e-05
19.85	2.00706e-05
19.90	2.00706e-05
19.95	2.00708e-05
20.00	2.00709e-05
20.05	2.0071e-05
20.10	2.00711e-05
20.15	2.00712e-05
20.20	2.00712e-05
20.25	2.00713e-05
20.30	2.00712e-05
20.35	2.00713e-05
20.40	2.00713e-05
20.45	2.00714e-05
20.50	2.00714e-05
20.55	2.00715e-05
20.60	2.00715e-05
20.65	2.00716e-05
20.70	2.00717e-05
20.75	2.00718e-05
20.80	2.00718e-05
20.85	2.00719e-05
20.90	2.00719e-05
20.95	2.0072e-05
21.00	2.00719e-05
21.05	2.00719e-05
21.10	2.00716e-05
21.15	2.00716e-05
21.20	2.00715e-05
21.25	2.00715e-05
21.30	2.00714e-05
21.35	2.00713e-05
21.40	2.00712e-05
21.45	2.00711e-05
21.50	2.00709e-05
21.55	2.00707e-05
21.60	2.00704e-05
21.65	2.00701e-05
21.70	2.00696e-05
21.75	2.00691e-05
21.80	2.00685e-05
21.85	2.00677e-05
21.90	2.00668e-05
21.95	2.00656e-05
22.00	2.00641e-05
22.05	2.00622e-05
22.10	2.00598e-05
22.15	2.00568e-05
22.20	2.00532e-05
22.25	2.00488e-05
22.30	2.00434e-05
22.35	2.00373e-05
22.40	2.00301e-05
22.45	2.00221e-05
22.50	2.00132e-05
22.55	2.00035e-05
22.60	1.99931e-05
22.65	1.99821e-05
22.70	1.99708e-05
22.75	1.99595e-05
22.80	1.99485e-05
22.85	1.99377e-05
22.90	1.99274e-05
22.95	1.99177e-05
23.00	1.99087e-05
