# EMDoublePairProduction interaction rates
# photon field: cosmic infrared and optical background radiation (lower) model of Stecker et al. 2016 (arXiv:1605.01382)
# log10(E/eV), 1/lambda [1/Mpc]
10.90	8.15705e-24
10.95	1.24041e-19
11.00	1.12791e-17
11.05	2.0449e-16
11.10	1.68651e-15
11.15	8.77748e-15
11.20	3.3707e-14
11.25	1.04565e-13
11.30	2.76427e-13
11.35	6.46366e-13
11.40	1.36981e-12
11.45	2.68074e-12
11.50	4.90785e-12
11.55	8.49583e-12
11.60	1.40147e-11
11.65	2.21828e-11
11.70	3.38729e-11
11.75	5.01547e-11
11.80	7.23266e-11
11.85	1.02026e-10
11.90	1.41335e-10
11.95	1.93002e-10
12.00	2.60602e-10
12.05	3.48797e-10
12.10	4.63475e-10
12.15	6.11976e-10
12.20	8.03101e-10
12.25	1.0472e-09
12.30	1.35588e-09
12.35	1.74187e-09
12.40	2.21832e-09
12.45	2.79848e-09
12.50	3.4949e-09
12.55	4.31914e-09
12.60	5.28106e-09
12.65	6.38875e-09
12.70	7.6482e-09
12.75	9.06294e-09
12.80	1.06345e-08
12.85	1.23619e-08
12.90	1.42423e-08
12.95	1.62705e-08
13.00	1.84407e-08
13.05	2.07448e-08
13.10	2.31759e-08
13.15	2.57261e-08
13.20	2.83897e-08
13.25	3.11615e-08
13.30	3.40404e-08
13.35	3.70272e-08
13.40	4.01292e-08
13.45	4.3358e-08
13.50	4.67343e-08
13.55	5.02865e-08
13.60	5.40552e-08
13.65	5.80935e-08
13.70	6.24726e-08
13.75	6.72831e-08
13.80	7.26416e-08
13.85	7.86959e-08
13.90	8.5632e-08
13.95	9.36847e-08
14.00	1.03148e-07
14.05	1.14397e-07
14.10	1.27911e-07
14.15	1.44315e-07
14.20	1.6441e-07
14.25	1.89217e-07
14.30	2.2e-07
14.35	2.58282e-07
14.40	3.05823e-07
14.45	3.64582e-07
14.50	4.36647e-07
14.55	5.2413e-07
14.60	6.29077e-07
14.65	7.53309e-07
14.70	8.98371e-07
14.75	1.06534e-06
14.80	1.25487e-06
14.85	1.46697e-06
14.90	1.70121e-06
14.95	1.95646e-06
15.00	2.23123e-06
15.05	2.52338e-06
15.10	2.83062e-06
15.15	3.15007e-06
15.20	3.47895e-06
15.25	3.814e-06
15.30	4.15235e-06
15.35	4.49075e-06
15.40	4.82666e-06
15.45	5.15709e-06
15.50	5.48018e-06
15.55	5.79333e-06
15.60	6.09554e-06
15.65	6.38467e-06
15.70	6.66063e-06
15.75	6.92163e-06
15.80	7.16227e-06
15.85	7.39251e-06
15.90	7.60856e-06
15.95	7.80894e-06
16.00	7.99583e-06
16.05	8.16773e-06
16.10	8.32735e-06
16.15	8.47302e-06
16.20	8.60783e-06
16.25	8.72999e-06
16.30	8.84291e-06
16.35	8.94447e-06
16.40	9.03828e-06
16.45	9.12206e-06
16.50	9.19958e-06
16.55	9.26827e-06
16.60	9.33195e-06
16.65	9.38794e-06
16.70	9.44012e-06
16.75	9.48552e-06
16.80	9.52805e-06
16.85	9.5647e-06
16.90	9.59938e-06
16.95	9.62885e-06
17.00	9.65701e-06
17.05	9.68061e-06
17.10	9.70354e-06
17.15	9.72236e-06
17.20	9.74097e-06
17.25	9.75596e-06
17.30	9.77118e-06
17.35	9.78306e-06
17.40	9.79545e-06
17.45	9.80482e-06
17.50	9.81502e-06
17.55	9.82237e-06
17.60	9.83068e-06
17.65	9.8364e-06
17.70	9.84328e-06
17.75	9.84771e-06
17.80	9.8534e-06
17.85	9.85685e-06
17.90	9.8617e-06
17.95	9.85771e-06
18.00	9.86005e-06
18.05	9.86377e-06
18.10	9.86554e-06
18.15	9.86883e-06
18.20	9.87013e-06
18.25	9.87293e-06
18.30	9.87383e-06
18.35	9.87634e-06
18.40	9.87693e-06
18.45	9.87914e-06
18.50	9.87947e-06
18.55	9.88151e-06
18.60	9.88163e-06
18.65	9.88348e-06
18.70	9.88345e-06
18.75	9.88525e-06
18.80	9.88512e-06
18.85	9.88678e-06
18.90	9.88653e-06
18.95	9.88816e-06
19.00	9.88784e-06
19.05	9.88934e-06
19.10	9.88895e-06
19.15	9.89047e-06
19.20	9.89002e-06
19.25	9.89143e-06
19.30	9.89093e-06
19.35	9.89238e-06
19.40	9.89188e-06
19.45	9.89326e-06
19.50	9.89272e-06
19.55	9.89411e-06
19.60	9.89353e-06
19.65	9.89486e-06
19.70	9.89426e-06
19.75	9.89563e-06
19.80	9.89498e-06
19.85	9.89628e-06
19.90	9.89562e-06
19.95	9.89698e-06
20.00	9.89634e-06
20.05	9.87758e-06
20.10	9.87695e-06
20.15	9.87836e-06
20.20	9.87777e-06
20.25	9.87916e-06
20.30	9.87856e-06
20.35	9.87997e-06
20.40	9.87933e-06
20.45	9.88066e-06
20.50	9.88e-06
20.55	9.88139e-06
20.60	9.88073e-06
20.65	9.88205e-06
20.70	9.88138e-06
20.75	9.88276e-06
20.80	9.88211e-06
20.85	9.88344e-06
20.90	9.88279e-06
20.95	9.88417e-06
21.00	9.88352e-06
21.05	9.88483e-06
21.10	9.88417e-06
21.15	9.88551e-06
21.20	9.88485e-06
21.25	9.88612e-06
21.30	9.88546e-06
21.35	9.88675e-06
21.40	9.88605e-06
21.45	9.88725e-06
21.50	9.88654e-06
21.55	9.88776e-06
21.60	9.887e-06
21.65	9.88809e-06
21.70	9.88725e-06
21.75	9.88831e-06
21.80	9.88739e-06
21.85	9.88826e-06
21.90	9.88717e-06
21.95	9.88785e-06
22.00	9.88647e-06
22.05	9.88664e-06
22.10	9.88461e-06
22.15	9.88403e-06
22.20	9.87453e-06
22.25	9.87136e-06
22.30	9.86937e-06
22.35	9.8652e-06
22.40	9.86239e-06
22.45	9.85753e-06
22.50	9.85435e-06
22.55	9.84954e-06
22.60	9.84659e-06
22.65	9.84193e-06
22.70	9.83903e-06
22.75	9.83436e-06
22.80	9.83151e-06
22.85	9.82693e-06
22.90	9.82432e-06
22.95	9.8201e-06
23.00	9.81791e-06
